varying the voltage/current supplied to electromagnet through 0-30V and measuring B-field
voltage (V) current(A)  B(mT)
0.5     0.007   3
1   0.018   4
1.5     0.029   5
2   0.039   6
2.5     0.050   8
3   0.061   9
3.5     0.072   10
4   0.083    11
4.5     0.093   13
5   0.105   14
5.5     0.115   15
6   0.126   17
6.5     0.137   18
7   0.148   19
7.5     0.158   20
8   0.170   22
8.5   0.180   23
9   0.191   25
9.5 0.202   26
10  0.213   27
10.5  0.224   29
11  0.234   30
11.5    0.245   32
12  0.256   33
12.5    0.267   35
13  0.278   36
13.5    0.289   37
14  0.300   38
14.5    0.310   40
15  0.322   41
15.5    0.332   43
16  0.343    44
16.5    0.354   46
17   0.365  47
17.5    0.376   48
18  0.387   50
18.5    0.398   51
19  0.408   52
19.5    0.419   54
20  0.429   55
20.5    0.440   56
21  0.451   58
21.5    0.462   60
22  0.473   61
22.5    0.484   62
23  0.495   63
23.5    0.505   65
24  0.516   66
24.5    0.527   67
25  0.538   69
25.5    0.549   70
26  0.561   71
26.5    0.570   73
27  0.581   74
27.5    0.592   76
28  0.602   77
28.5    0.614   78
29  0.624   80
29.5    0.635   81
30  0.646   82
30  0.642    83
29.5    0.633   81
29  0.621   80
28.5    0.611    79
28  0.600   78
27.5    0.590   77
27  0.578   76
26.5    0.567   74
26  0.557   73
25.5    0.545   71
25  0.536   70
24.5    0.525   69
24  0.514   68
23.5    0.503   66
23  0.492   65
22.5    0.481   64
22  0.469   63
21.5    0.460   61
21  0.449   60
20.5    0.439   59
20  0.428   58
19.5    0.417   56
19  0.406   54
18.5    0.396   54
18  0.385   52
17.5    0.375   51
17  0.363   50
16.5    0.353   48
16  0.342   47
15.5    0.332   45
15  0.321   44
14.5    0.310   43
14  0.299   41
13.5    0.288   40
13  0.277   39
12.5    0.266   37
12  0.256   36
11.5    0.245   35
11  0.235   33
10.5    0.224   32
10  0.212   30
9.5 0.202   29
9   0.191   28
8.5 0.181   26
8   0.170   25
7.5 0.159   23
7   0.149   22
6.5 0.137   20
6   0.126   19
5.5 0.116   17
5   0.105   16
4.5 0.094   14
4   0.084   13
3.5 0.073   12
3   0.061   10
2.5 0.051   9
2   0.040   7
1.5 0.030   6
1   0.018   4
0.5 0.008   3
0   0.000   2

