% Moku:Go Frequency Response Analyzer
% Channel 1, DC coupling, 10 Vpp range, amplitude 100 mVpp, offset 0.000 0 V, phase 0.000 deg
% Channel 2, DC coupling, 10 Vpp range, amplitude 100 mVpp, offset 0.000 0 V, phase 0.000 deg
% Logarithmic sweep from 20.00000 MHz to 3.440054 Hz with 256 pts, dynamic amplitude mode off, measuring fundamental, normalization off
% Averaging time 2.00 ms, 1 cycles; Settling time 100 us, 1 cycles
% Acquired 2023-10-24 T 16:25:22 +0100
% Frequency (Hz), Channel 1 Magnitude (dB), Channel 1 Phase (deg)
2.00000000e+07, -1.3178e+01, 6.2060e+01
1.88149333e+07, -1.3015e+01, 5.4725e+01
1.77000857e+07, -1.2779e+01, 4.7781e+01
1.66512966e+07, -1.2503e+01, 4.1251e+01
1.56646517e+07, -1.2184e+01, 3.5145e+01
1.47364689e+07, -1.1836e+01, 2.9544e+01
1.38632839e+07, -1.1478e+01, 2.4366e+01
1.30418381e+07, -1.1101e+01, 1.9546e+01
1.22690657e+07, -1.0727e+01, 1.5133e+01
1.15420826e+07, -1.0335e+01, 1.1019e+01
1.08581757e+07, -9.9394e+00, 7.2426e+00
1.02147926e+07, -9.5446e+00, 3.8121e+00
9.60953204e+06, -9.1538e+00, 7.2320e-01
9.04013521e+06, -8.7584e+00, -2.0906e+00
8.50447704e+06, -8.3707e+00, -4.6350e+00
8.00055841e+06, -7.9757e+00, -6.8551e+00
7.52649863e+06, -7.5866e+00, -8.8426e+00
7.08052848e+06, -7.2039e+00, -1.0561e+01
6.66098355e+06, -6.8302e+00, -1.2062e+01
6.26629805e+06, -6.4695e+00, -1.3333e+01
5.89499899e+06, -6.1194e+00, -1.4384e+01
5.54570063e+06, -5.7697e+00, -1.5261e+01
5.21709937e+06, -5.4380e+00, -1.5956e+01
4.90796883e+06, -5.1150e+00, -1.6471e+01
4.61715530e+06, -4.8063e+00, -1.6837e+01
4.34357345e+06, -4.4999e+00, -1.7048e+01
4.08620223e+06, -4.2105e+00, -1.7142e+01
3.84408112e+06, -3.9396e+00, -1.7133e+01
3.61630649e+06, -3.6938e+00, -1.7011e+01
3.40202827e+06, -3.4639e+00, -1.6817e+01
3.20044674e+06, -3.2538e+00, -1.6530e+01
3.01080960e+06, -3.0615e+00, -1.6178e+01
2.83240908e+06, -2.8764e+00, -1.5769e+01
2.66457940e+06, -2.7089e+00, -1.5338e+01
2.50669418e+06, -2.5524e+00, -1.4838e+01
2.35816419e+06, -2.4095e+00, -1.4328e+01
2.21843509e+06, -2.2752e+00, -1.3762e+01
2.08698541e+06, -2.1436e+00, -1.3125e+01
1.96332456e+06, -2.1010e+00, -1.2534e+01
1.84699103e+06, -1.9674e+00, -1.2175e+01
1.73755065e+06, -1.8686e+00, -1.1616e+01
1.63459498e+06, -1.7828e+00, -1.1071e+01
1.53773978e+06, -1.7079e+00, -1.0531e+01
1.44662356e+06, -1.6386e+00, -1.0017e+01
1.36090629e+06, -1.5770e+00, -9.5140e+00
1.28026805e+06, -1.5236e+00, -9.0097e+00
1.20440790e+06, -1.4727e+00, -8.5336e+00
1.13304272e+06, -1.4335e+00, -8.0848e+00
1.06590616e+06, -1.3966e+00, -7.6345e+00
1.00274766e+06, -1.3664e+00, -7.2128e+00
9.43331516e+05, -1.3423e+00, -6.9046e+00
8.87435977e+05, -1.2875e+00, -6.4790e+00
8.34852434e+05, -1.2672e+00, -6.0777e+00
7.85384643e+05, -1.2482e+00, -5.7297e+00
7.38847983e+05, -1.2257e+00, -5.3581e+00
6.95068775e+05, -1.2125e+00, -5.0385e+00
6.53883631e+05, -1.1990e+00, -4.7403e+00
6.15138845e+05, -1.1860e+00, -4.4650e+00
5.78689816e+05, -1.1762e+00, -4.1879e+00
5.44400514e+05, -1.1671e+00, -3.9663e+00
5.12142968e+05, -1.1465e+00, -3.7342e+00
4.81796788e+05, -1.1329e+00, -3.4046e+00
4.53248721e+05, -1.1328e+00, -3.1623e+00
4.26392223e+05, -1.1252e+00, -2.9639e+00
4.01127061e+05, -1.1239e+00, -2.7667e+00
3.77358945e+05, -1.1199e+00, -2.5763e+00
3.54999168e+05, -1.1144e+00, -2.4094e+00
3.33964283e+05, -1.1104e+00, -2.2242e+00
3.14175785e+05, -1.1084e+00, -2.0576e+00
2.95559822e+05, -1.1053e+00, -1.8952e+00
2.78046917e+05, -1.1014e+00, -1.7469e+00
2.61571709e+05, -1.1012e+00, -1.5971e+00
2.46072713e+05, -1.1006e+00, -1.4424e+00
2.31492084e+05, -1.0989e+00, -1.3167e+00
2.17775406e+05, -1.1009e+00, -1.2043e+00
2.04871486e+05, -1.0979e+00, -1.0631e+00
1.92732167e+05, -1.0981e+00, -9.3506e-01
1.81312143e+05, -1.0949e+00, -8.3010e-01
1.70568794e+05, -1.0915e+00, -7.1699e-01
1.60462024e+05, -1.1004e+00, -5.7427e-01
1.50954114e+05, -1.0988e+00, -4.5749e-01
1.42009579e+05, -1.0999e+00, -3.9598e-01
1.33595038e+05, -1.1002e+00, -2.9533e-01
1.25679086e+05, -1.1037e+00, -2.0060e-01
1.18232181e+05, -1.1027e+00, -9.8475e-02
1.11226530e+05, -1.1003e+00, -2.7886e-02
1.04635987e+05, -1.1046e+00, 6.8687e-02
9.84359556e+04, -1.1038e+00, 1.5190e-01
9.26032969e+04, -1.0958e+00, 2.6496e-01
8.71162426e+04, -1.1016e+00, 3.7074e-01
8.19543146e+04, -1.1040e+00, 4.9521e-01
7.70982481e+04, -1.1004e+00, 5.7691e-01
7.25299197e+04, -1.1042e+00, 6.5925e-01
6.82322800e+04, -1.1098e+00, 7.7791e-01
6.41892898e+04, -1.1059e+00, 9.1479e-01
6.03858602e+04, -1.1062e+00, 1.0138e+00
5.68077966e+04, -1.1094e+00, 1.1004e+00
5.34417451e+04, -1.1135e+00, 1.2230e+00
5.02751434e+04, -1.1123e+00, 1.3620e+00
4.72961735e+04, -1.1178e+00, 1.4582e+00
4.44937174e+04, -1.1123e+00, 1.6416e+00
4.18573162e+04, -1.1237e+00, 1.7204e+00
3.93771306e+04, -1.1205e+00, 1.8605e+00
3.70439043e+04, -1.1265e+00, 2.0155e+00
3.48489294e+04, -1.1251e+00, 2.1722e+00
3.27840140e+04, -1.1312e+00, 2.3333e+00
3.08414519e+04, -1.1340e+00, 2.5035e+00
2.90139929e+04, -1.1429e+00, 2.6494e+00
2.72948171e+04, -1.1434e+00, 2.8387e+00
2.56775081e+04, -1.1496e+00, 2.9868e+00
2.41560301e+04, -1.1508e+00, 3.2172e+00
2.27247047e+04, -1.1629e+00, 3.3926e+00
2.13781902e+04, -1.1643e+00, 3.6852e+00
2.01114611e+04, -1.1674e+00, 3.8805e+00
1.89197899e+04, -1.1793e+00, 4.0757e+00
1.77987293e+04, -1.1883e+00, 4.3691e+00
1.67440952e+04, -1.1822e+00, 4.6497e+00
1.57519517e+04, -1.1931e+00, 4.8799e+00
1.48185960e+04, -1.1944e+00, 5.1906e+00
1.39405447e+04, -1.2149e+00, 5.5401e+00
1.31145210e+04, -1.2257e+00, 5.8031e+00
1.23374418e+04, -1.2303e+00, 6.1415e+00
1.16064073e+04, -1.2360e+00, 6.5441e+00
1.09186889e+04, -1.2429e+00, 6.8086e+00
1.02717202e+04, -1.2540e+00, 7.2556e+00
9.66308648e+03, -1.2749e+00, 7.6686e+00
9.09051638e+03, -1.2757e+00, 8.1429e+00
8.55187295e+03, -1.2843e+00, 8.6420e+00
8.04514595e+03, -1.2997e+00, 9.1231e+00
7.56844422e+03, -1.3239e+00, 9.6980e+00
7.11998865e+03, -1.3519e+00, 1.0235e+01
6.69810557e+03, -1.3564e+00, 1.0868e+01
6.30122047e+03, -1.3780e+00, 1.1432e+01
5.92785214e+03, -1.4095e+00, 1.2196e+01
5.57660712e+03, -1.4305e+00, 1.2951e+01
5.24617455e+03, -1.4579e+00, 1.3658e+01
4.93532121e+03, -1.4850e+00, 1.4439e+01
4.64288696e+03, -1.5258e+00, 1.5277e+01
4.36778042e+03, -1.5609e+00, 1.6215e+01
4.10897486e+03, -1.6117e+00, 1.7152e+01
3.86550439e+03, -1.6556e+00, 1.8113e+01
3.63646036e+03, -1.7279e+00, 1.9151e+01
3.42098795e+03, -1.7764e+00, 2.0227e+01
3.21828301e+03, -1.8434e+00, 2.1445e+01
3.02758900e+03, -1.9098e+00, 2.2458e+01
2.84819425e+03, -2.0045e+00, 2.3852e+01
2.67942924e+03, -2.0982e+00, 2.5222e+01
2.52066412e+03, -2.2036e+00, 2.6580e+01
2.37130636e+03, -2.3048e+00, 2.7910e+01
2.23079855e+03, -2.4345e+00, 2.9437e+01
2.09861629e+03, -2.5699e+00, 3.1002e+01
1.97426628e+03, -2.7085e+00, 3.2418e+01
1.85728442e+03, -2.8462e+00, 3.4024e+01
1.74723412e+03, -3.0349e+00, 3.5716e+01
1.64370467e+03, -3.2053e+00, 3.7291e+01
1.54630968e+03, -3.4170e+00, 3.9050e+01
1.45468568e+03, -3.6213e+00, 4.0789e+01
1.36849070e+03, -3.8417e+00, 4.2639e+01
1.28740306e+03, -4.1091e+00, 4.4223e+01
1.21112013e+03, -4.3863e+00, 4.5887e+01
1.13935722e+03, -4.7121e+00, 4.7809e+01
1.07184651e+03, -4.9850e+00, 4.9289e+01
1.00833603e+03, -5.3178e+00, 5.1172e+01
9.48588753e+02, -5.6521e+00, 5.2622e+01
8.92381705e+02, -5.9903e+00, 5.4445e+01
8.39505112e+02, -6.3607e+00, 5.6127e+01
7.89761634e+02, -6.7112e+00, 5.7613e+01
7.42965622e+02, -7.0970e+00, 5.9292e+01
6.98942431e+02, -7.5197e+00, 6.0801e+01
6.57527760e+02, -7.8854e+00, 6.2235e+01
6.18567047e+02, -8.3651e+00, 6.3808e+01
5.81914886e+02, -8.7710e+00, 6.4972e+01
5.47434488e+02, -9.1826e+00, 6.6275e+01
5.14997168e+02, -9.7161e+00, 6.7585e+01
4.84481868e+02, -1.0140e+01, 6.8426e+01
4.55774701e+02, -1.0605e+01, 6.9812e+01
4.28768530e+02, -1.1036e+01, 7.0828e+01
4.03362564e+02, -1.1527e+01, 7.1556e+01
3.79461986e+02, -1.2063e+01, 7.2876e+01
3.56977598e+02, -1.2531e+01, 7.3433e+01
3.35825484e+02, -1.3084e+01, 7.5565e+01
3.15926704e+02, -1.3513e+01, 7.5427e+01
2.97206993e+02, -1.3985e+01, 7.6499e+01
2.79596487e+02, -1.4590e+01, 7.7358e+01
2.63029463e+02, -1.5066e+01, 7.8198e+01
2.47444089e+02, -1.5530e+01, 7.9011e+01
2.32782202e+02, -1.6018e+01, 7.8137e+01
2.18989080e+02, -1.6570e+01, 8.0971e+01
2.06013246e+02, -1.7001e+01, 8.0449e+01
1.93806274e+02, -1.7676e+01, 8.1501e+01
1.82322606e+02, -1.8081e+01, 8.1229e+01
1.71519383e+02, -1.8583e+01, 8.1850e+01
1.61356288e+02, -1.8914e+01, 8.1946e+01
1.51795389e+02, -1.9586e+01, 8.1605e+01
1.42801006e+02, -2.0206e+01, 8.2758e+01
1.34339570e+02, -2.0567e+01, 8.4391e+01
1.26379502e+02, -2.1148e+01, 8.3271e+01
1.18891095e+02, -2.1357e+01, 8.2917e+01
1.11846401e+02, -2.2229e+01, 8.5957e+01
1.05219129e+02, -2.2760e+01, 8.6220e+01
9.89845445e+01, -2.3312e+01, 8.5978e+01
9.31193801e+01, -2.3634e+01, 8.4903e+01
8.76017461e+01, -2.3995e+01, 8.4639e+01
8.24110505e+01, -2.4659e+01, 8.3279e+01
7.75279208e+01, -2.4663e+01, 8.8487e+01
7.29341329e+01, -2.5829e+01, 8.6144e+01
6.86125422e+01, -2.5915e+01, 8.7179e+01
6.45470202e+01, -2.6976e+01, 8.8752e+01
6.07223939e+01, -2.6973e+01, 8.6274e+01
5.71243895e+01, -2.7608e+01, 8.2002e+01
5.37395789e+01, -2.8319e+01, 8.9932e+01
5.05553295e+01, -2.8957e+01, 9.0612e+01
4.75597576e+01, -2.9798e+01, 8.4423e+01
4.47416833e+01, -2.9114e+01, 8.4708e+01
4.20905893e+01, -3.0065e+01, 9.1852e+01
3.95965815e+01, -3.1588e+01, 8.6470e+01
3.72503520e+01, -3.1452e+01, 9.1279e+01
3.50431443e+01, -3.1624e+01, 9.1405e+01
3.29667211e+01, -3.1905e+01, 9.1379e+01
3.10133329e+01, -3.2964e+01, 8.6030e+01
2.91756895e+01, -3.3919e+01, 8.9221e+01
2.74469326e+01, -3.3484e+01, 8.4836e+01
2.58206103e+01, -3.4687e+01, 8.9672e+01
2.42906530e+01, -3.5997e+01, 9.5377e+01
2.28513507e+01, -3.4904e+01, 8.6237e+01
2.14973320e+01, -3.5329e+01, 8.5618e+01
2.02235433e+01, -3.6430e+01, 8.3139e+01
1.90252309e+01, -3.8235e+01, 8.2945e+01
1.78979225e+01, -3.7482e+01, 9.4151e+01
1.68374109e+01, -3.6817e+01, 8.6020e+01
1.58397382e+01, -3.8706e+01, 9.3507e+01
1.49011808e+01, -4.0788e+01, 9.5517e+01
1.40182362e+01, -3.9175e+01, 8.6061e+01
1.31876089e+01, -4.0672e+01, 9.7957e+01
1.24061991e+01, -4.0004e+01, 9.4380e+01
1.16710904e+01, -4.3720e+01, 9.7318e+01
1.09795394e+01, -4.2614e+01, 9.2813e+01
1.03289650e+01, -4.0922e+01, 9.1625e+01
9.71693939e+00, -4.4843e+01, 6.2703e+01
9.14117831e+00, -4.4920e+01, 7.1417e+01
8.59953301e+00, -4.2022e+01, 8.5810e+01
8.08998199e+00, -4.6494e+01, 1.2629e+02
7.61062357e+00, -4.3851e+01, 9.7580e+01
7.15966873e+00, -4.4997e+01, 8.2838e+01
6.73543448e+00, -4.6769e+01, 7.3048e+01
6.33633751e+00, -4.3672e+01, 7.5374e+01
5.96088838e+00, -4.7340e+01, 1.0614e+02
5.60768586e+00, -5.1280e+01, 1.0279e+02
5.27541176e+00, -4.9618e+01, 8.9443e+01
4.96282602e+00, -4.9702e+01, 6.8887e+01
4.66876202e+00, -4.7200e+01, 5.8098e+01
4.39212230e+00, -4.9512e+01, 1.2740e+02
4.13187440e+00, -5.1419e+01, 9.3922e+01
3.88704706e+00, -4.9799e+01, 1.2292e+02
3.65672655e+00, -4.8922e+01, 8.5721e+01
3.44005330e+00, -5.0051e+01, 5.3370e+01
