Gain = 1.06 dB
Frequency (Hz), Channel 1 Magnitude (dB), Channel 1 Phase (deg)
20000000.0, -2.9524e+01, -8.7598e+00
19251533.3, -2.9684e+01, -1.9183e+01
18531076.6, -2.9846e+01, -2.9660e+01
17837581.9, -2.9843e+01, -3.9665e+01
17170040.1, -2.9837e+01, -4.9584e+01
16527479.9, -2.9735e+01, -5.9249e+01
15908966.4, -2.9709e+01, -6.7987e+01
15313599.8, -2.9494e+01, -7.6846e+01
14740513.8, -2.9294e+01, -8.5078e+01
14188874.6, -2.9102e+01, -9.2584e+01
13657879.6, -2.8841e+01, -9.9407e+01
13146756.2, -2.8540e+01, -1.0625e+02
12654760.7, -2.8213e+01, -1.1243e+02
12181177.3, -2.7820e+01, -1.1802e+02
11725317.0, -2.7389e+01, -1.2337e+02
11286516.5, -2.6986e+01, -1.2808e+02
10864137.4, -2.6515e+01, -1.3233e+02
10457565.1, -2.5969e+01, -1.3627e+02
10066208.1, -2.5456e+01, -1.3982e+02
9689497.04, -2.4909e+01, -1.4296e+02
9326883.73, -2.4338e+01, -1.4571e+02
8977840.62, -2.3733e+01, -1.4818e+02
8641859.86, -2.3058e+01, -1.5026e+02
8318452.63, -2.2397e+01, -1.5212e+02
8007148.38, -2.1694e+01, -1.5375e+02
7707494.16, -2.0987e+01, -1.5501e+02
7419054.01, -2.0211e+01, -1.5609e+02
7141408.26, -1.9458e+01, -1.5706e+02
6874152.93, -1.8678e+01, -1.5767e+02
6616899.19, -1.7897e+01, -1.5818e+02
6369272.74, -1.7083e+01, -1.5849e+02
6130913.3, -1.6273e+01, -1.5869e+02
5901474.07, -1.5451e+01, -1.5866e+02
5680621.22, -1.4629e+01, -1.5847e+02
5468033.41, -1.3785e+01, -1.5818e+02
5263401.36, -1.2913e+01, -1.5766e+02
5066427.32, -1.2015e+01, -1.5705e+02
4876824.7, -1.1094e+01, -1.5627e+02
4694317.65, -1.0152e+01, -1.5532e+02
4518640.62, -9.2088e+00, -1.5422e+02
4349538.01, -8.2889e+00, -1.5290e+02
4186763.78, -7.3692e+00, -1.5142e+02
4030081.11, -6.4164e+00, -1.4968e+02
3879262.02, -5.4165e+00, -1.4769e+02
3734087.1, -4.4114e+00, -1.4540e+02
3594345.1, -3.4112e+00, -1.4279e+02
3459832.71, -2.3598e+00, -1.3979e+02
3330354.22, -1.3317e+00, -1.3637e+02
3205721.26, -2.9925e-01, -1.3244e+02
3085752.47, 6.8756e-01, -1.2799e+02
2970273.31, 1.6426e+00, -1.2291e+02
2859115.78, 2.5436e+00, -1.1717e+02
2752118.12, 3.3669e+00, -1.1078e+02
2649124.68, 4.0877e+00, -1.0382e+02
2549985.59, 4.6783e+00, -9.6400e+01
2454556.62, 5.1165e+00, -8.8753e+01
2362698.92, 5.4007e+00, -8.1101e+01
2274278.85, 5.5401e+00, -7.3710e+01
2189167.74, 5.5507e+00, -6.6788e+01
2107241.78, 5.4642e+00, -6.0403e+01
2028381.76, 5.3050e+00, -5.4534e+01
1952472.95, 5.0391e+00, -4.9581e+01
1879404.9, 4.8301e+00, -4.5269e+01
1809071.29, 4.5919e+00, -4.1317e+01
1741369.81, 4.3541e+00, -3.7853e+01
1676201.94, 4.1228e+00, -3.4773e+01
1613472.87, 3.9054e+00, -3.1975e+01
1553091.33, 3.7050e+00, -2.9398e+01
1494969.47, 3.5084e+00, -2.6838e+01
1439022.72, 3.2764e+00, -2.4390e+01
1385169.69, 3.0139e+00, -2.2481e+01
1333332.02, 2.7854e+00, -2.1044e+01
1283434.29, 2.5967e+00, -1.9772e+01
1235403.89, 2.4290e+00, -1.8594e+01
1189170.96, 2.2804e+00, -1.7476e+01
1144668.21, 2.1412e+00, -1.6431e+01
1101830.91, 2.0162e+00, -1.5453e+01
1060596.72, 1.8969e+00, -1.4538e+01
1020905.65, 1.7864e+00, -1.3689e+01
982699.954, 1.6828e+00, -1.2914e+01
945924.043, 1.5843e+00, -1.2255e+01
910524.409, 1.5202e+00, -1.1590e+01
876449.547, 1.4371e+00, -1.0866e+01
843649.88, 1.3598e+00, -1.0248e+01
812077.687, 1.2837e+00, -9.6775e+00
781687.03, 1.2149e+00, -9.1539e+00
752433.693, 1.1526e+00, -8.6542e+00
724275.113, 1.0911e+00, -8.1641e+00
697170.322, 1.0316e+00, -7.7196e+00
671079.882, 9.7819e-01, -7.3143e+00
645965.833, 9.2489e-01, -6.9341e+00
621791.636, 8.7765e-01, -6.5639e+00
598522.119, 8.3375e-01, -6.2183e+00
576123.424, 7.8855e-01, -5.9021e+00
554562.963, 7.5093e-01, -5.6305e+00
533809.366, 7.1550e-01, -5.3575e+00
513832.438, 6.7997e-01, -5.1256e+00
494603.114, 6.6408e-01, -4.8096e+00
476093.415, 6.3176e-01, -4.5407e+00
458276.411, 5.9919e-01, -4.3015e+00
441126.178, 5.7063e-01, -4.0927e+00
424617.765, 5.4310e-01, -3.8881e+00
408727.151, 5.1820e-01, -3.6929e+00
393431.217, 4.9758e-01, -3.5260e+00
378707.708, 4.7497e-01, -3.3287e+00
364535.202, 4.5706e-01, -3.2025e+00
350893.078, 4.3978e-01, -3.0383e+00
337761.488, 4.2201e-01, -2.8829e+00
325121.327, 4.0625e-01, -2.7322e+00
312954.202, 3.8970e-01, -2.6168e+00
301242.411, 3.7603e-01, -2.4933e+00
289968.915, 3.6398e-01, -2.3733e+00
279117.31, 3.5273e-01, -2.2714e+00
268671.809, 3.4194e-01, -2.1465e+00
258617.214, 3.2815e-01, -2.0564e+00
248938.895, 3.1872e-01, -1.9606e+00
239622.77, 3.1132e-01, -1.8785e+00
230655.287, 3.0230e-01, -1.7554e+00
222023.396, 2.8989e-01, -1.7004e+00
213714.54, 2.8629e-01, -1.6099e+00
205716.629, 2.7508e-01, -1.5371e+00
198018.026, 2.6947e-01, -1.4591e+00
190607.531, 2.6664e-01, -1.3818e+00
183474.361, 2.5981e-01, -1.3322e+00
176608.138, 2.5305e-01, -1.2557e+00
169998.872, 2.5160e-01, -1.1750e+00
163636.947, 2.4179e-01, -1.1006e+00
157513.107, 2.3365e-01, -1.0637e+00
151618.441, 2.3079e-01, -1.0093e+00
145944.373, 2.2761e-01, -9.9273e-01
140482.647, 2.1424e-01, -9.4043e-01
135225.318, 2.1784e-01, -8.7732e-01
130164.735, 2.1181e-01, -8.5112e-01
125293.536, 2.1071e-01, -8.0976e-01
120604.634, 2.0283e-01, -7.6218e-01
116091.206, 2.0864e-01, -7.4239e-01
111746.686, 2.0588e-01, -6.8227e-01
107564.752, 2.0229e-01, -6.4576e-01
103539.32, 1.9528e-01, -6.0808e-01
99664.5333, 2.0110e-01, -5.9965e-01
95934.7539, 1.9723e-01, -5.4311e-01
92344.5553, 1.9372e-01, -5.2109e-01
88888.7139, 1.9030e-01, -4.8353e-01
85562.2016, 1.8609e-01, -4.6705e-01
82360.1785, 1.8774e-01, -4.1192e-01
79277.9858, 1.8334e-01, -4.0124e-01
76311.139, 1.8440e-01, -3.7961e-01
73455.3215, 1.8668e-01, -3.6415e-01
70706.3783, 1.7690e-01, -2.9363e-01
68060.3097, 1.7965e-01, -2.7322e-01
65513.2658, 1.7994e-01, -2.5535e-01
63061.5408, 1.7708e-01, -2.2984e-01
60701.5675, 1.7883e-01, -1.7644e-01
58429.9123, 1.7005e-01, -1.7598e-01
56243.27, 1.7199e-01, -1.6529e-01
54138.4591, 1.6741e-01, -1.2239e-01
52112.4174, 1.6455e-01, -1.1713e-01
50162.1968, 1.5903e-01, -9.7320e-02
48284.96, 1.6384e-01, -8.1860e-02
46477.9757, 1.6391e-01, -8.0642e-02
44738.6147, 1.5857e-01, -3.3408e-02
43064.3465, 1.5952e-01, -4.9373e-02
41452.7349, 1.5663e-01, -1.0253e-02
39901.4353, 1.5067e-01, 2.7356e-02
38408.1904, 1.5389e-01, 3.8158e-02
36970.8278, 1.5419e-01, 3.6796e-02
35587.256, 1.5242e-01, 5.8674e-02
34255.4622, 1.5209e-01, 7.3415e-02
32973.5085, 1.5090e-01, 8.7715e-02
31739.5297, 1.5052e-01, 8.9912e-02
30551.7306, 1.4462e-01, 1.5910e-01
29408.3829, 1.3977e-01, 1.2093e-01
28307.8231, 1.3902e-01, 1.6978e-01
27248.4499, 1.3714e-01, 1.5815e-01
26228.722, 1.3030e-01, 1.8640e-01
25247.1557, 1.3878e-01, 1.8009e-01
24302.3229, 1.2997e-01, 2.2601e-01
23392.8489, 1.2514e-01, 2.4493e-01
22517.4104, 1.2866e-01, 1.9968e-01
21674.7338, 1.1617e-01, 2.8889e-01
20863.5929, 1.3325e-01, 2.0511e-01
20082.8076, 1.2182e-01, 2.6179e-01
19331.242, 1.3180e-01, 2.2185e-01
18607.8024, 1.1560e-01, 2.5930e-01
17911.4363, 1.2054e-01, 2.5775e-01
17241.1306, 1.1242e-01, 2.4262e-01
16595.91, 1.0836e-01, 2.6646e-01
15974.8356, 1.0593e-01, 2.1337e-01
15377.004, 1.0669e-01, 2.9689e-01
14801.5452, 1.0231e-01, 2.4358e-01
14247.622, 1.0233e-01, 2.1772e-01
13714.4284, 1.0069e-01, 2.7524e-01
13201.1887, 9.2254e-02, 2.6121e-01
12707.1562, 9.5230e-02, 2.7326e-01
12231.612, 8.5326e-02, 3.0214e-01
11773.8643, 8.7571e-02, 2.8342e-01
11333.247, 9.2077e-02, 2.8390e-01
10909.1191, 8.4577e-02, 2.6192e-01
10500.8634, 7.7532e-02, 3.0599e-01
10107.8861, 9.3241e-02, 2.5223e-01
9729.61526, 8.7632e-02, 2.4238e-01
9365.50059, 8.7858e-02, 2.4018e-01
9015.0123, 7.6714e-02, 2.5057e-01
8677.64046, 6.0587e-02, 2.4285e-01
8352.8942, 7.6459e-02, 1.8349e-01
8040.30103, 7.5649e-02, 2.2110e-01
7739.40613, 7.5258e-02, 1.7980e-01
7449.77173, 7.6086e-02, 1.7601e-01
7170.97641, 7.6879e-02, 2.0035e-01
6902.61455, 6.4020e-02, 1.3228e-01
6644.29568, 7.1512e-02, 1.4797e-01
6395.64396, 6.5179e-02, 1.4637e-01
6156.29762, 7.4013e-02, 1.5893e-01
5925.90842, 8.7008e-02, 8.4273e-02
5704.14115, 5.4553e-02, 2.0924e-01
5490.67316, 7.8022e-02, 1.2474e-01
5285.19385, 7.4532e-02, 1.1853e-01
5087.40426, 6.7312e-02, 1.4061e-01
4897.01661, 7.4885e-02, 1.9994e-01
4713.75391, 8.3732e-02, 1.0592e-01
4537.34951, 5.2508e-02, 1.4995e-01
4367.54675, 6.3373e-02, 9.9576e-02
4204.09858, 4.4714e-02, 2.5686e-01
4046.76718, 6.8424e-02, 1.2583e-01
3895.32365, 8.1894e-02, 1.1849e-01
3749.54764, 6.4336e-02, 1.6728e-01
3609.22706, 6.5908e-02, 1.2592e-01
3474.15774, 6.8858e-02, 1.3228e-01
3344.14316, 3.2242e-02, 1.2528e-01
3218.99416, 6.5101e-02, 8.5128e-02
3098.52866, 6.0331e-02, 8.0731e-02
2982.57138, 4.5465e-02, 7.4374e-02
2870.95361, 5.8054e-02, 9.6380e-02
2763.51294, 7.3747e-02, 3.9854e-02
2660.09307, 5.5871e-02, 5.4340e-02
2560.54351, 7.0713e-02, 4.9666e-02
2464.71943, 3.9126e-02, 8.4025e-02
2372.4814, 9.8869e-02, 4.4394e-02
2283.69523, 6.1774e-02, 1.2197e-01
2198.23173, 5.5990e-02, 1.3596e-01
2115.96657, 7.5092e-02, -1.6140e-02
2036.78004, 5.9145e-02, 2.8741e-02
1960.55693, 2.8523e-02, 7.0147e-02
1887.18635, 6.6053e-02, -5.9417e-02
1816.56154, 9.9201e-02, -1.1815e-01
1748.57974, 9.0142e-02, -8.6571e-03
1683.14206, 5.3191e-02, 4.9163e-02
1620.15326, 5.4317e-02, 5.9443e-02
1559.52172, 6.6612e-02, 1.4832e-01
1501.15921, 5.1779e-02, 1.6159e-01
1444.98083, 9.4208e-02, -1.5689e-01
1390.90482, 6.8767e-02, 5.1991e-02
1338.85252, 7.6206e-02, 2.2440e-01
1288.74819, 8.4927e-02, -1.6559e-03
1240.51894, 1.1548e-01, -1.9427e-02
1194.09458, 8.1825e-02, 1.2050e-01
1149.40758, 8.4376e-02, 6.9329e-03
1106.39291, 8.3954e-02, -2.2916e-01
1064.98799, 9.0370e-03, 1.6169e-01
1025.13259, 1.0125e-01, -9.6548e-02
986.768707, 1.7090e-02, 2.3218e-01
949.840529, 1.4064e-01, -1.4975e-01
914.294327, -4.8916e-03, 4.0189e-02
880.078383, 5.9873e-02, 1.4062e-01
847.142913, 1.1560e-01, -1.1388e-01
815.439998, 1.6091e-01, -3.3997e-01
784.923512, 8.1099e-02, 1.1258e-01
755.549055, 2.1538e-03, 9.1223e-02
727.273889, 2.5416e-02, 2.7507e-01
700.056873, 8.2704e-04, 2.5111e-01
673.858409, 1.0936e-01, -8.5215e-02
648.640378, 1.2628e-01, 1.0040e-02
624.366091, 6.7048e-03, 2.4309e-01
601.000228, 1.3981e-02, -3.5884e-03
578.508794, 4.3321e-02, 1.3744e-01
556.859065, 6.7066e-02, -1.8161e-01
536.019541, -5.0622e-02, 1.7614e-01
515.959901, 7.1907e-02, -9.1702e-03
496.65096, 2.0528e-02, 2.8363e-01
478.064623, 7.3410e-02, 8.3721e-02
460.17385, 5.5640e-02, -3.3290e-01
442.952609, -1.3705e-02, 3.6273e-01
426.375844, 1.2471e-01, -1.4142e-01
410.419437, 3.0187e-02, 1.0270e-01
395.060173, 1.2090e-01, -9.7218e-02
380.275703, -4.5788e-02, 2.3906e-01
366.044517, -5.3276e-02, 6.2159e-01
352.34591, -9.7445e-02, 5.0260e-01
339.15995, -4.4534e-03, 3.7099e-01
326.467453, 1.9230e-02, 2.8769e-01
314.249951, 5.7470e-02, -4.0201e-02
302.48967, -6.8423e-02, 6.6901e-01
291.169497, 7.3280e-02, -4.5367e-02
280.272963, 7.8727e-02, -3.3729e-01
269.784213, 1.5655e-02, -1.9382e-01
259.687988, 1.1973e-02, 6.9321e-01
249.969597, 6.0281e-02, -1.9861e-01
240.6149, 2.6509e-02, -6.7756e-02
231.610288, -1.3816e-03, -1.6091e-01
222.942658, 1.0623e-01, -6.6660e-02
214.5994, 7.1991e-02, -5.4700e-02
206.568374, -3.5108e-02, 5.0139e-01
198.837896, -2.2704e-02, -1.1813e-02
191.396719, 1.5854e-02, -2.4437e-01
184.234015, -3.5691e-02, 1.3343e-01
177.339363, 1.4313e-01, -2.4815e-01
170.702732, 1.4989e-01, -6.4601e-01
164.314467, 1.9909e-01, -1.7360e-01
158.165271, 6.3659e-03, -2.3673e-02
152.246199, 4.2360e-02, -1.3790e-01
146.548638, -4.0185e-02, 4.1388e-01
141.064299, 4.4152e-02, -7.3369e-02
135.785202, 2.2105e-01, -4.9587e-01
130.703667, 1.4988e-01, -1.9908e-01
125.812299, 9.5533e-02, -3.1691e-01
121.103983, 4.1706e-02, 1.3162e-01
116.571868, -1.8745e-02, -3.1125e-03
112.20936, 1.3250e-01, -2.4639e-01
108.010111, 5.7109e-02, -1.4598e-01
103.968012, -2.2787e-02, 4.5027e-01
100.077182, -6.7209e-02, 3.5471e-01
96.3319603, 9.8598e-02, -3.3590e-01
92.7268969, 1.4033e-01, -6.1606e-01
89.256747, 2.9519e-02, 1.4052e-01
85.9164617, 5.6609e-02, 8.8755e-02
82.701181, -4.8515e-02, 1.6582e-01
79.6062269, 1.0115e-01, -4.0751e-01
76.6270962, 1.0858e-02, -5.8854e-02
73.7594546, 1.0280e-01, -1.0077e-01
70.9991297, -1.5850e-02, 9.6508e-02
68.3421053, -5.5800e-02, 2.6194e-01
65.7845157, 2.1042e-02, -1.1524e-01
63.3226396, 1.4899e-01, -2.5087e-01
60.9528951, -6.2249e-02, 2.6737e-01
58.6718344, 3.1110e-03, 1.5774e-01
56.4761386, 7.2413e-02, 7.5179e-02
54.362613, -3.1955e-02, 7.9920e-03
52.3281826, 1.9103e-02, 2.4254e-01
50.3698874, 1.5179e-01, -3.6364e-01
48.4848782, 2.3002e-02, -2.1258e-01
46.6704122, -2.8575e-02, 6.0359e-02
44.9238497, 5.3658e-04, 1.8468e-01
43.2426493, 2.8770e-02, -1.4518e-01
41.6243651, 1.2953e-01, -4.7237e-01
40.0666424, 5.5138e-02, 1.5486e-03
38.567215, -4.8380e-02, 9.8889e-02
37.1239011, 1.6494e-01, -3.5195e-01
35.7346009, -3.8684e-02, 1.5376e-01
34.3972928, 6.8453e-02, -1.4497e-01
33.1100314, 1.9645e-02, 1.0659e-01
31.8709435, 9.3942e-02, -1.4423e-01
30.6782265, 4.4911e-02, -1.5507e-01
29.5301449, 2.1885e-01, -5.2283e-01
28.4250283, -1.5974e-03, 3.7287e-01
27.3612689, -1.8463e-02, 2.3614e-01
26.3373189, 5.8206e-02, 1.5187e-01
25.3516885, 1.4839e-02, -1.9294e-01
24.4029438, 5.4924e-02, -1.2696e-01
23.4897042, 1.2123e-01, -3.4535e-01
22.6106411, 1.8985e-01, 7.6526e-02
21.7644754, 3.1966e-02, 1.6180e-01
20.9499761, 1.0787e-01, -2.8761e-01
20.1659581, -4.5100e-02, 4.3080e-01
19.4112807, 1.0648e-01, -4.1405e-02
18.6848458, -5.2590e-02, 3.9691e-01
17.9855965, -5.3061e-02, 6.5627e-02
17.3125155, 4.5105e-02, 8.0709e-02
16.6646234, -3.2476e-02, 1.8981e-01
16.0409776, 1.1968e-01, -3.1728e-01
15.4406706, 2.4661e-02, -6.6152e-02
14.8628292, -4.6252e-02, 4.2854e-01
14.3066126, -5.9595e-02, 3.9032e-01
13.7712114, 1.2541e-02, 1.2239e-01
13.2558467, 4.0902e-02, 6.2657e-02
12.7597687, -6.1765e-02, 3.8410e-01
12.2822556, 8.2113e-03, 9.9146e-02
11.8226126, 2.3473e-02, 2.5602e-01
11.380171, -5.4913e-02, 2.5790e-01
10.954287, 1.2281e-01, -1.3420e-01
10.544341, 3.9341e-02, 2.3979e-01
10.1497366, 1.6829e-02, 1.8260e-01
9.76989958, 1.2787e-01, -1.4032e-01
9.40427733, 7.3288e-02, 2.0347e-01
9.05233789, 1.0631e-01, -2.6921e-03
8.7135692, -4.5641e-02, 3.3848e-03
8.38747837, -3.6154e-03, 1.8113e-01
8.07359094, 7.3795e-02, 1.0006e-01
7.77145023, -9.2016e-03, 2.4638e-01
7.48061663, 1.5541e-01, -4.0842e-02
7.20066699, 9.3634e-02, -3.0526e-01
6.931194, 7.1689e-02, -1.3763e-01
6.6718056, 9.5554e-02, 3.7631e-03
6.42212437, 7.0679e-02, -1.9604e-01
6.18178704, 1.5506e-02, 2.2491e-01
5.95044394, 9.5886e-02, 1.2436e-02
5.72775848, 1.3785e-01, 4.4354e-02
5.51340664, -1.5059e-02, -1.8805e-01
5.30707657, -3.8653e-03, 2.6940e-02
5.10846805, 1.0015e-01, 3.7550e-02
4.91729213, -4.6829e-02, 1.9025e-01
4.73327065, -2.6457e-02, 2.3945e-01
4.55613587, -2.9167e-02, 2.0130e-01
4.38563006, 5.2895e-02, 2.0541e-01
4.22150515, -4.5683e-03, 2.6761e-02
4.06352234, 6.1571e-02, -1.2704e-01
3.91145178, 8.7438e-02, -1.8739e-01
3.7650722, 1.5013e-01, 2.2134e-02
3.62417063, 4.0582e-02, 2.5647e-01
3.48854207, 1.5554e-01, 1.3676e-02
3.35798919, 1.7389e-01, -1.9950e-01
3.23232203, 1.0632e-01, 2.1120e-01
3.11135775, 5.7804e-02, -2.6489e-01
2.99492036, 5.1111e-02, -3.8284e-02
2.88284045, 1.0727e-01, -1.1136e-01
2.77495494, 1.6161e-01, -4.2718e-01
2.67110687, 1.2327e-01, -5.8579e-02
2.57114513, 1.5436e-01, -3.1328e-01
