SpectraSuite Data File
++++++++++++++++++++++++++++++++++++
Date: Tue Nov 14 14:37:17 GMT 2023
User: 2663452m
Dark Spectrum Present: No
Reference Spectrum Present: No
Number of Sampled Component Spectra: 1
Spectrometers: USB2G51559
Integration Time (usec): 2000000 (USB2G51559)
Spectra Averaged: 1 (USB2G51559)
Boxcar Smoothing: 0 (USB2G51559)
Correct for Electrical Dark: No (USB2G51559)
Strobe/Lamp Enabled: No (USB2G51559)
Correct for Detector Non-linearity: No (USB2G51559)
Correct for Stray Light: No (USB2G51559)
Number of Pixels in Processed Spectrum: 651
>>>>>Begin Processed Spectral Data<<<<<
350.00	120.65
351.00	115.03
352.00	115.10
353.00	208.88
354.00	139.30
355.00	111.17
356.00	110.45
357.00	117.33
358.00	111.80
359.00	111.16
360.00	116.20
361.00	120.58
362.00	114.67
363.00	115.97
364.00	110.91
365.00	110.57
366.00	107.14
367.00	116.46
368.00	117.39
369.00	115.27
370.00	135.04
371.00	114.85
372.00	109.98
373.00	118.01
374.00	117.80
375.00	120.26
376.00	114.16
377.00	278.03
378.00	130.74
379.00	115.52
380.00	108.30
381.00	120.14
382.00	113.36
383.00	145.64
384.00	115.96
385.00	105.70
386.00	113.93
387.00	111.17
388.00	132.73
389.00	111.94
390.00	113.07
391.00	116.97
392.00	114.68
393.00	107.30
394.00	107.47
395.00	115.00
396.00	104.86
397.00	141.33
398.00	120.41
399.00	129.11
400.00	106.31
401.00	104.60
402.00	111.52
403.00	107.92
404.00	125.25
405.00	133.20
406.00	115.40
407.00	118.59
408.00	116.05
409.00	112.43
410.00	105.74
411.00	117.05
412.00	128.23
413.00	119.46
414.00	109.12
415.00	119.66
416.00	146.69
417.00	120.46
418.00	111.96
419.00	117.21
420.00	134.22
421.00	111.56
422.00	137.44
423.00	114.81
424.00	105.17
425.00	103.98
426.00	104.62
427.00	113.58
428.00	104.93
429.00	100.48
430.00	103.48
431.00	112.24
432.00	117.77
433.00	134.12
434.00	111.69
435.00	117.84
436.00	121.85
437.00	113.60
438.00	106.45
439.00	110.93
440.00	114.30
441.00	117.88
442.00	108.69
443.00	115.73
444.00	125.25
445.00	133.27
446.00	119.98
447.00	119.37
448.00	105.79
449.00	112.77
450.00	98.95
451.00	137.55
452.00	149.46
453.00	115.45
454.00	114.99
455.00	111.55
456.00	108.18
457.00	105.00
458.00	106.76
459.00	99.77
460.00	140.19
461.00	166.76
462.00	113.17
463.00	107.86
464.00	139.97
465.00	111.39
466.00	109.07
467.00	105.29
468.00	113.69
469.00	117.47
470.00	119.98
471.00	117.16
472.00	108.91
473.00	110.57
474.00	110.65
475.00	122.75
476.00	110.00
477.00	114.72
478.00	114.10
479.00	132.58
480.00	117.00
481.00	153.49
482.00	120.24
483.00	108.10
484.00	102.99
485.00	107.26
486.00	111.89
487.00	124.09
488.00	111.00
489.00	117.29
490.00	109.34
491.00	114.38
492.00	123.99
493.00	113.73
494.00	112.30
495.00	114.13
496.00	110.94
497.00	127.33
498.00	118.90
499.00	130.61
500.00	117.12
501.00	105.15
502.00	118.93
503.00	110.84
504.00	115.95
505.00	116.73
506.00	121.03
507.00	111.36
508.00	107.72
509.00	122.04
510.00	109.91
511.00	113.21
512.00	110.22
513.00	143.98
514.00	114.07
515.00	109.71
516.00	137.07
517.00	112.75
518.00	112.02
519.00	118.03
520.00	110.58
521.00	116.29
522.00	117.05
523.00	111.86
524.00	120.00
525.00	110.89
526.00	114.80
527.00	110.90
528.00	139.95
529.00	135.67
530.00	108.69
531.00	115.00
532.00	114.08
533.00	112.61
534.00	156.10
535.00	122.61
536.00	124.26
537.00	130.60
538.00	116.48
539.00	112.91
540.00	122.31
541.00	117.02
542.00	142.68
543.00	134.52
544.00	124.56
545.00	118.43
546.00	131.95
547.00	134.73
548.00	121.82
549.00	119.80
550.00	116.19
551.00	120.96
552.00	118.50
553.00	116.96
554.00	129.45
555.00	112.38
556.00	150.05
557.00	123.72
558.00	126.74
559.00	120.17
560.00	116.78
561.00	114.42
562.00	125.89
563.00	267.43
564.00	126.89
565.00	116.06
566.00	118.40
567.00	156.31
568.00	128.10
569.00	111.54
570.00	110.03
571.00	110.37
572.00	103.96
573.00	109.63
574.00	115.00
575.00	106.82
576.00	115.79
577.00	199.03
578.00	124.55
579.00	116.73
580.00	132.32
581.00	-110.70
582.00	-95.17
583.00	151.91
584.00	117.94
585.00	112.61
586.00	116.87
587.00	150.19
588.00	118.12
589.00	129.97
590.00	121.21
591.00	133.03
592.00	110.95
593.00	122.85
594.00	111.44
595.00	111.67
596.00	111.84
597.00	111.02
598.00	107.61
599.00	133.06
600.00	139.51
601.00	123.13
602.00	116.14
603.00	131.00
604.00	114.02
605.00	111.20
606.00	119.13
607.00	111.33
608.00	118.60
609.00	114.59
610.00	132.77
611.00	133.92
612.00	130.36
613.00	125.62
614.00	114.34
615.00	129.83
616.00	135.26
617.00	116.64
618.00	111.94
619.00	117.92
620.00	109.98
621.00	123.65
622.00	145.48
623.00	110.66
624.00	109.57
625.00	111.16
626.00	113.33
627.00	142.68
628.00	138.76
629.00	127.05
630.00	129.25
631.00	116.18
632.00	120.08
633.00	121.51
634.00	120.10
635.00	116.53
636.00	123.20
637.00	106.88
638.00	107.95
639.00	117.47
640.00	115.92
641.00	111.94
642.00	133.52
643.00	125.11
644.00	112.68
645.00	122.33
646.00	123.48
647.00	112.03
648.00	116.86
649.00	118.34
650.00	139.86
651.00	123.55
652.00	132.18
653.00	122.65
654.00	145.97
655.00	118.76
656.00	114.73
657.00	108.91
658.00	118.68
659.00	115.22
660.00	113.34
661.00	124.61
662.00	114.71
663.00	108.02
664.00	150.86
665.00	120.57
666.00	125.67
667.00	100.62
668.00	1164.35
669.00	166.64
670.00	114.22
671.00	109.24
672.00	137.45
673.00	113.16
674.00	117.38
675.00	113.01
676.00	111.62
677.00	120.60
678.00	118.96
679.00	116.12
680.00	116.20
681.00	169.82
682.00	112.22
683.00	111.87
684.00	110.94
685.00	147.53
686.00	111.01
687.00	103.80
688.00	105.31
689.00	113.19
690.00	129.05
691.00	115.07
692.00	131.03
693.00	114.79
694.00	118.38
695.00	89.52
696.00	154.18
697.00	109.19
698.00	132.60
699.00	110.11
700.00	104.43
701.00	126.04
702.00	111.81
703.00	124.08
704.00	114.96
705.00	112.51
706.00	118.90
707.00	106.89
708.00	133.17
709.00	131.55
710.00	113.36
711.00	107.89
712.00	119.29
713.00	133.83
714.00	116.17
715.00	105.91
716.00	135.25
717.00	117.34
718.00	110.89
719.00	109.85
720.00	121.59
721.00	115.05
722.00	122.39
723.00	113.55
724.00	111.87
725.00	112.83
726.00	110.85
727.00	106.43
728.00	128.34
729.00	116.85
730.00	113.10
731.00	107.80
732.00	117.90
733.00	110.21
734.00	117.84
735.00	117.30
736.00	200.48
737.00	168.12
738.00	114.26
739.00	125.24
740.00	106.48
741.00	113.42
742.00	111.97
743.00	118.43
744.00	118.49
745.00	107.39
746.00	114.64
747.00	109.38
748.00	104.79
749.00	118.05
750.00	107.64
751.00	103.94
752.00	107.79
753.00	129.34
754.00	110.76
755.00	111.44
756.00	113.84
757.00	117.73
758.00	114.94
759.00	114.91
760.00	115.35
761.00	517.93
762.00	115.30
763.00	113.95
764.00	105.93
765.00	123.69
766.00	111.80
767.00	117.19
768.00	112.30
769.00	124.83
770.00	113.83
771.00	105.49
772.00	107.92
773.00	105.65
774.00	112.98
775.00	109.72
776.00	136.36
777.00	115.37
778.00	110.53
779.00	107.30
780.00	112.10
781.00	107.36
782.00	123.11
783.00	136.04
784.00	115.18
785.00	123.07
786.00	117.79
787.00	119.83
788.00	106.48
789.00	112.54
790.00	109.02
791.00	121.61
792.00	123.54
793.00	111.80
794.00	123.16
795.00	106.62
796.00	112.44
797.00	107.01
798.00	108.03
799.00	125.35
800.00	142.73
801.00	122.70
802.00	120.91
803.00	110.78
804.00	114.63
805.00	103.91
806.00	110.81
807.00	113.00
808.00	111.95
809.00	108.74
810.00	114.35
811.00	109.90
812.00	118.07
813.00	118.38
814.00	123.41
815.00	116.46
816.00	170.87
817.00	135.09
818.00	110.97
819.00	137.93
820.00	106.63
821.00	107.71
822.00	114.44
823.00	108.12
824.00	108.85
825.00	111.73
826.00	114.16
827.00	113.73
828.00	117.90
829.00	139.62
830.00	132.62
831.00	118.52
832.00	183.71
833.00	110.55
834.00	104.02
835.00	103.98
836.00	120.03
837.00	119.32
838.00	107.64
839.00	111.78
840.00	117.70
841.00	128.08
842.00	107.38
843.00	108.57
844.00	109.60
845.00	127.42
846.00	116.07
847.00	117.22
848.00	119.45
849.00	108.84
850.00	112.57
851.00	123.60
852.00	106.69
853.00	109.37
854.00	133.72
855.00	114.84
856.00	106.89
857.00	113.10
858.00	108.01
859.00	111.18
860.00	123.48
861.00	135.81
862.00	110.24
863.00	103.43
864.00	136.45
865.00	129.98
866.00	115.62
867.00	118.37
868.00	121.97
869.00	119.81
870.00	116.02
871.00	111.03
872.00	131.89
873.00	114.47
874.00	117.73
875.00	118.92
876.00	155.84
877.00	110.16
878.00	108.58
879.00	113.29
880.00	117.04
881.00	107.36
882.00	112.68
883.00	121.72
884.00	126.09
885.00	122.68
886.00	140.23
887.00	110.16
888.00	123.12
889.00	134.80
890.00	124.47
891.00	111.13
892.00	110.86
893.00	107.06
894.00	108.65
895.00	116.61
896.00	110.93
897.00	106.03
898.00	109.02
899.00	119.71
900.00	108.11
901.00	106.93
902.00	113.37
903.00	110.93
904.00	113.96
905.00	119.00
906.00	131.20
907.00	120.88
908.00	146.37
909.00	111.01
910.00	107.79
911.00	114.56
912.00	128.87
913.00	135.72
914.00	141.45
915.00	110.95
916.00	120.90
917.00	235.74
918.00	122.73
919.00	111.22
920.00	108.75
921.00	109.78
922.00	108.28
923.00	106.04
924.00	110.28
925.00	108.53
926.00	106.91
927.00	110.97
928.00	105.20
929.00	106.02
930.00	103.96
931.00	111.69
932.00	108.01
933.00	103.97
934.00	109.58
935.00	109.00
936.00	130.16
937.00	110.32
938.00	110.41
939.00	109.08
940.00	136.27
941.00	114.26
942.00	106.01
943.00	114.27
944.00	110.19
945.00	105.00
946.00	111.81
947.00	107.09
948.00	106.07
949.00	110.59
950.00	148.34
951.00	122.40
952.00	108.22
953.00	113.11
954.00	151.04
955.00	120.18
956.00	120.66
957.00	116.84
958.00	111.30
959.00	107.04
960.00	104.34
961.00	112.17
962.00	104.01
963.00	105.40
964.00	133.63
965.00	115.57
966.00	115.25
967.00	110.01
968.00	109.73
969.00	140.52
970.00	120.70
971.00	108.58
972.00	105.99
973.00	107.31
974.00	114.68
975.00	108.13
976.00	114.00
977.00	117.87
978.00	107.70
979.00	112.45
980.00	121.75
981.00	125.53
982.00	111.50
983.00	116.37
984.00	106.20
985.00	145.58
986.00	112.23
987.00	112.80
988.00	114.19
989.00	132.43
990.00	121.64
991.00	114.95
992.00	111.40
993.00	124.55
994.00	109.32
995.00	111.07
996.00	108.73
997.00	134.45
998.00	118.13
999.00	104.86
1000.00	116.81
